Time (s),X (rad/s),Y (rad/s),Z (rad/s)
1654618487014757632,-0.108293898,0.138031572,-0.672175705
1654618487024689408,-0.051684417,0.122463271,-0.63510716
1654618487034622464,-0.006744293,0.134204641,-0.515957415
1654618487044554496,-0.021953873,0.168387383,-0.468279868
1654618487054487552,-0.194089592,0.246151879,-0.534953892
1654618487064420352,-0.511398852,0.348478019,-0.504491806
1654618487074352384,-0.833038509,0.363640904,-0.415433675
1654618487084285440,-1.114582896,0.210269183,-0.287959069
1654618487094218496,-1.356007457,0.115187436,-0.202646941
1654618487104150528,-1.555562615,0.119718276,-0.158014223
1654618487114083584,-1.725076675,0.26394859,-0.117583498
1654618487124016640,-1.759643793,0.397355646,-0.13219972
1654618487133948672,-1.647259593,0.501983762,-0.180152535
1654618487143881472,-1.342624545,0.543524027,-0.221665084
1654618487153814528,-0.885832071,0.507515013,-0.27195394
1654618487163746560,-0.344724625,0.424987435,-0.273487896
1654618487173679616,0.20999451,0.227140114,-0.213894367
1654618487183612672,0.643091321,0.127609536,-0.122895211
1654618487193544704,0.918136478,-0.021836421,-0.025419507
1654618487203477504,1.020701408,-0.118295848,0.002383363
1654618487213410560,0.977485776,-0.173535824,-0.03901118
1654618487223342848,0.828030765,-0.128085777,-0.106091946
1654618487233275904,0.652754128,-0.082964599,-0.170872361
1654618487243207936,0.471256495,-0.003845817,-0.18639113
1654618487253140992,0.284335077,0.029446891,-0.179816827
1654618487263074048,0.091194391,-0.017131796,-0.205573052
1654618487273005824,-0.106995471,-0.165764183,-0.246283412
1654618487282938624,-0.201156855,-0.363548368,-0.169593424
1654618487292871936,-0.178294271,-0.611279011,0.040841695
1654618487302803712,-0.107789472,-0.932480156,0.298473507
1654618487312736768,-0.074040294,-1.045458674,0.598333478
1654618487322669824,0.033195082,-1.088961363,0.799773395
1654618487332601856,0.118342839,-0.976323605,0.786379159
1654618487342534656,0.138227329,-0.789963603,0.628395915
1654618487352467712,0.104018167,-0.589220703,0.414698899
1654618487362399744,0.018459853,-0.381625146,0.254037321
1654618487372332800,0.02390388,-0.501794994,0.184359148
1654618487382265856,0.089580365,-0.639914751,0.160794959
1654618487392197888,0.106942646,-0.603535354,0.1846845
1654618487402130944,0.053187806,-0.400416106,0.125967652
1654618487412062976,-0.084252492,-0.294229031,-0.052531891
1654618487421995776,-0.29291144,-0.123866342,-0.263281405
1654618487431928832,-0.506530762,0.016853105,-0.451787978
1654618487441860864,-0.646839678,-0.042695176,-0.532745957
1654618487451793920,-0.67392081,-0.24132742,-0.434482276
1654618487461726976,-0.61263746,-0.455342233,-0.243528545
1654618487471659008,-0.613820434,-0.452972055,-0.166642487
1654618487481592064,-0.706127226,-0.158864006,-0.239884213
1654618487491524864,-0.694237828,0.090084024,-0.478936464
1654618487501456640,-0.650735855,0.47281009,-0.743019998
1654618487511389696,-0.600850284,0.761243641,-0.970260441
1654618487521322752,-0.473946959,0.982530773,-1.140131712
1654618487531254784,-0.318383545,1.105944872,-1.241637945
1654618487541187840,-0.196595863,1.051068544,-1.24975121
1654618487551120640,-0.12894015,0.939637423,-1.14597404
1654618487561052672,-0.11136435,0.791341424,-0.973846555
1654618487570985728,-0.126528323,0.662641347,-0.753808141
1654618487580917760,-0.155390859,0.691564918,-0.561022997
1654618487590850816,-0.162179634,0.791455269,-0.478957415
1654618487600783872,-0.161757782,0.878253043,-0.509656429
1654618487610715904,-0.176249355,0.980099976,-0.572951794
1654618487620648960,-0.218659669,1.061964035,-0.619543791
1654618487630581760,-0.255734503,1.050209045,-0.580632508
1654618487640513792,-0.261059761,0.957467854,-0.439623714
1654618487650446848,-0.23424843,0.770785987,-0.271372587
1654618487660379904,-0.195098355,0.604338169,-0.170244917
1654618487670311936,-0.168543398,0.582102478,-0.215899229
1654618487680244992,-0.179825619,0.622133255,-0.380262613
1654618487690177792,-0.20822601,0.741632521,-0.58318013
1654618487700109824,-0.282352448,0.846571207,-0.792771161
1654618487710042624,-0.386983007,0.930381954,-0.962221742
1654618487719975936,-0.469464034,1.012236834,-1.024200439
1654618487729907712,-0.47589621,1.060163736,-0.957182348
1654618487739840768,-0.346620232,1.033775449,-0.79588002
1654618487749772800,-0.110263474,0.927581608,-0.551872253
1654618487759705856,0.140112013,0.806578517,-0.270461857
1654618487769638656,0.30878368,0.679576814,-0.030366033
1654618487779570944,0.358682513,0.576748967,0.11275091
1654618487789503744,0.308149666,0.468770862,0.137978703
1654618487799436800,0.154897258,0.361743242,0.073071606
1654618487809368832,-0.048394021,0.455631673,-0.016424824
1654618487819301888,-0.154812336,0.706888914,-0.093802966
1654618487829234944,-0.106565751,0.760379195,-0.246629506
1654618487839166976,-0.050468929,0.742757857,-0.405991972
1654618487849099776,0.005613613,0.707699537,-0.486584634
1654618487859032832,0.007015502,0.647108614,-0.517357171
1654618487868964864,-0.082683079,0.370283723,-0.548029006
1654618487878897920,-0.19592841,0.145502001,-0.506168366
1654618487888829952,-0.296501309,0.000880531,-0.404933363
1654618487898763008,-0.22770761,-0.128908619,-0.33522886
1654618487908696064,-0.108611956,-0.26433295,-0.218181476
1654618487918627840,-0.100849375,-0.122686878,-0.113215916
1654618487928560640,-0.162143678,-0.047716908,-0.160740018
1654618487938493696,-0.232790947,0.073844418,-0.268676072
1654618487948425728,-0.220385209,0.182849944,-0.36036244
1654618487958358784,-0.056919843,0.155983701,-0.41234389
1654618487968291840,0.071106471,0.084834673,-0.395636499
1654618487978223872,0.065982014,0.047367457,-0.396092445
1654618487988156672,-0.044980668,0.062905014,-0.434577793
1654618487998089728,-0.185260817,0.065470703,-0.509408593
1654618488008021760,-0.302524805,0.02875055,-0.60711503
1654618488017954816,-0.432565898,-0.002891265,-0.689572394
1654618488027887872,-0.555828095,-0.011591933,-0.770250738
1654618488037819904,-0.667357326,-0.009846497,-0.839842558
1654618488047752960,-0.755322278,-0.014518059,-0.886526465
1654618488057684992,-0.758610249,-0.042741705,-0.926073074
1654618488067617792,-0.725477457,0.034769893,-0.928750992
1654618488077550848,-0.735796154,0.05410764,-0.934956431
1654618488087482880,-0.737946749,0.039548516,-0.932021558
1654618488097415936,-0.566083908,0.091552332,-0.901695073
1654618488107348992,-0.203491584,0.331651211,-0.840539932
1654618488117280768,0.237439483,0.402092636,-0.756730259
1654618488127213824,0.688985407,0.473352581,-0.632937968
1654618488137146880,1.048515081,0.410595715,-0.457323849
1654618488147078656,1.136844277,0.190727592,-0.315916479
1654618488157011712,0.94500047,-0.093940631,-0.225198537
1654618488166944768,0.534386277,-0.260806918,-0.206398368
1654618488176876800,0.022383451,-0.247546762,-0.280424386
1654618488186809856,-0.500956059,-0.188561127,-0.422944129
1654618488196741888,-0.882979333,-0.138779178,-0.570471525
1654618488206674688,-1.017040849,-0.133581936,-0.67276001
1654618488216607744,-0.9869802,-0.176475614,-0.715331197
1654618488226543104,-0.869671941,-0.159199417,-0.7063936
1654618488236476160,-0.712377131,-0.090609439,-0.665246427
1654618488246409216,-0.535683513,-0.026391694,-0.617272556
1654618488256341248,-0.334999651,0.034286302,-0.573461652
1654618488266274304,-0.140444458,0.117160082,-0.571155787
1654618488276207104,0.006527402,0.193978414,-0.606477797
1654618488286139136,0.099908985,0.234826118,-0.633477449
1654618488296072192,0.11839132,0.269827247,-0.605627179
1654618488306005248,0.045918893,0.371420234,-0.535207152
1654618488315937280,-0.09653759,0.536615014,-0.458209097
1654618488325870336,-0.206155479,0.658418059,-0.417100757
1654618488335802112,-0.156779409,0.74659425,-0.414910853
1654618488345735168,0.060384221,0.740314543,-0.421898872
1654618488355667968,0.322933555,0.575789511,-0.420797914
1654618488365600000,0.522100389,0.391635388,-0.345286816
1654618488375533056,0.522604525,0.235924348,-0.247047886
1654618488385466112,0.335702002,0.197852433,-0.196099982
1654618488395398144,0.016750887,0.323681742,-0.184301645
1654618488405331200,-0.358168542,0.54600811,-0.189095482
1654618488415264256,-0.668809235,0.782816112,-0.230310306
1654618488425196288,-0.827368319,0.974450052,-0.295690209
1654618488435129088,-0.861847162,1.071644306,-0.336940974
1654618488445062144,-0.733619928,1.074621558,-0.337530136
1654618488454994176,-0.414172709,0.946124315,-0.303474426
1654618488464927232,-0.020337157,0.920083821,-0.243160337
1654618488474859264,0.363967359,1.033326983,-0.160626054
1654618488484792320,0.507691324,1.113962173,-0.175266892
1654618488494725120,0.448924989,1.04590559,-0.323996991
1654618488504657152,0.345697463,0.929650426,-0.513633847
1654618488514590208,0.202697158,0.747585774,-0.658327401
1654618488524523264,0.004152898,0.459050685,-0.707011581
1654618488534455040,-0.323301673,0.151196733,-0.663116336
1654618488544388096,-0.756675243,-0.114067599,-0.54366231
1654618488554321152,-1.149790287,-0.299505085,-0.436470836
1654618488564253184,-1.425445914,-0.417786807,-0.462833047
1654618488574185984,-1.518707752,-0.395145148,-0.583669722
1654618488584118016,-1.393582344,-0.264046937,-0.748887122
1654618488594051072,-1.1400038,-0.08762823,-0.925319195
1654618488603984128,-0.964185,-0.006458531,-1.047368169
1654618488613916160,-0.906593084,0.134665564,-1.058942795
1654618488623849216,-0.788882852,-0.040375985,-0.876777828
1654618488633782272,-0.702258766,-0.095901296,-0.525340438
1654618488643714304,-0.555714488,-0.246351481,-0.125120401
1654618488653647104,-0.307387233,-0.363414973,0.236055911
1654618488663580160,-0.100833535,-0.473187447,0.457061589
1654618488673512192,-0.080194034,-0.438716799,0.481463581
1654618488683445248,-0.165622205,-0.407427013,0.323619515
1654618488693378304,-0.263394028,-0.339718014,0.083222613
1654618488703310336,-0.301779002,-0.179506853,-0.148638129
1654618488713243136,-0.259335935,-0.021232532,-0.303031415
1654618488723175168,-0.177126139,0.00876879,-0.359329611
1654618488733108224,-0.067001231,-0.079878256,-0.322248817
1654618488743041280,0.063279979,-0.136624754,-0.196128458
1654618488752973056,0.188666925,-0.158267453,-0.033708122
1654618488762906112,0.271436721,-0.151209414,0.122325413
1654618488772839168,0.316651076,-0.056061588,0.248486549
1654618488782771200,0.335588753,0.053474072,0.33366698
1654618488792704000,0.359504193,0.151104495,0.400523245
1654618488802637056,0.409547627,0.124437675,0.487309635
1654618488812569088,0.483840495,0.036685988,0.590371609
1654618488822502144,0.564094842,-0.072622806,0.711592853
1654618488832434176,0.637763202,-0.195406511,0.799823403
1654618488842367232,0.670600474,-0.316378862,0.833670199
1654618488852300288,0.681070745,-0.395621479,0.788514435
1654618488862232320,0.613941729,-0.453402311,0.647384763
1654618488872165120,0.440933794,-0.495846987,0.420835763
1654618488882098176,0.248693183,-0.585389018,0.192105144
1654618488892030208,0.102998301,-0.660508215,0.054701202
1654618488901963264,0.043211445,-0.726773143,0.006351477
1654618488911896320,0.07599815,-0.676026344,0.032805454
1654618488921828352,0.147148237,-0.5456689,0.102904655
1654618488931761152,0.1385369,-0.403962851,0.155421644
1654618488941694208,0.059598196,-0.277082384,0.163679749
1654618488951625984,-0.003233232,-0.160231665,0.149090946
1654618488961559040,0.031726282,-0.077731758,0.164804757
1654618488971491072,0.127595544,-0.077236943,0.251841903
1654618488981424128,0.252963334,-0.157666981,0.380251646
1654618488991357184,0.340900928,-0.222882465,0.507849813
1654618489001289216,0.355473369,-0.25549531,0.575327158
1654618489011222016,0.307839245,-0.231902614,0.562045455
1654618489021155072,0.230771303,-0.190546706,0.456556916
1654618489031087104,0.164325163,-0.134183556,0.289490163
1654618489041020160,0.152810276,-0.046111982,0.103925556
1654618489050953216,0.187257201,0.064609997,-0.069506682
1654618489060885248,0.181675181,0.187277973,-0.194218203
1654618489070818304,0.112098239,0.256058633,-0.288535625
1654618489080750336,0.092429683,0.259631366,-0.327853173
1654618489090683136,0.132978171,0.245743781,-0.259974539
1654618489100616192,0.205524027,0.273122311,-0.151634544
1654618489110548224,0.257838607,0.276990831,-0.097479172
1654618489120481280,0.294149876,0.296872944,-0.093100995
1654618489130414336,0.329923064,0.360038072,-0.102605812
1654618489140346112,0.38864404,0.411756367,-0.09977375
1654618489150279168,0.455184698,0.377809316,-0.072286993
1654618489160212224,0.535405219,0.33943364,0.034904007
1654618489170144000,0.574308932,0.222974151,0.187763855
1654618489180077056,0.565354049,0.081170425,0.335946083
1654618489190009088,0.547286332,-0.051900543,0.434315801
1654618489199942144,0.524648309,-0.165418893,0.468503445
1654618489209875200,0.46278739,-0.252927959,0.42617169
1654618489219807232,0.340364307,-0.307556093,0.306687921
1654618489229736192,0.191681594,-0.330150604,0.131201327
1654618489239668992,0.081559688,-0.303926945,-0.07389944
1654618489249601024,0.03898773,-0.233568892,-0.256699354
1654618489259534080,0.074443616,-0.163786903,-0.390607595
1654618489269467136,0.139943793,-0.085640177,-0.443793297
1654618489279399168,0.230670646,-0.041426461,-0.421586871
1654618489289332224,0.299051315,-0.032512862,-0.359057188
1654618489299264256,0.329204023,-0.054854408,-0.279959649
1654618489309197312,0.307620436,-0.106105343,-0.220052391
1654618489319130112,0.248190075,-0.146351233,-0.180627853
1654618489329061888,0.180689856,-0.159908593,-0.167664379
1654618489338994944,0.120625585,-0.177498162,-0.175946727
1654618489348928000,0.083537072,-0.202205911,-0.176703855
1654618489358860032,0.081961006,-0.209691152,-0.15149565
1654618489368793088,0.101657748,-0.223156884,-0.103871405
1654618489378725888,0.103163362,-0.248872176,-0.047533143
1654618489388657920,0.122017473,-0.277143776,0.003645357
1654618489398590976,0.135988817,-0.261121124,0.048725799
1654618489408523008,0.111397997,-0.224571392,0.091529451
1654618489418456064,0.043543167,-0.17163235,0.09299621
1654618489428389120,-0.034788124,-0.111962907,0.041526899
1654618489438321152,-0.091136985,-0.058636226,-0.040756401
1654618489448254208,-0.134225071,-0.06753438,-0.094742939
1654618489458187008,-0.17874679,-0.152314127,-0.103044249
1654618489468119040,-0.187935755,-0.255798161,-0.0322561
1654618489478052096,-0.13573876,-0.325987995,0.11183171
1654618489487985152,-0.02825411,-0.381444067,0.267804802
1654618489497917184,0.099411592,-0.3979204,0.37104103
1654618489507850240,0.167753369,-0.367603511,0.354309201
1654618489517782016,0.141341507,-0.294012398,0.217754021
1654618489527715072,0.048990808,-0.179525256,0.024735838
1654618489537648128,-0.067828871,-0.052832916,-0.140156537
1654618489547579904,-0.179057926,-0.019017959,-0.260874987
1654618489557512960,-0.269877553,-0.046751793,-0.296274602
1654618489567446016,-0.374874264,-0.125313446,-0.271705866
1654618489577378048,-0.47336632,-0.209853306,-0.195916459
1654618489587311104,-0.511389911,-0.233507499,-0.086331636
1654618489597243904,-0.473000616,-0.195432395,0.057871841
1654618489607176192,-0.414877683,-0.135299549,0.220041841
1654618489617108992,-0.345487624,-0.035704475,0.377085179
1654618489627041024,-0.28349483,0.024310928,0.472835928
1654618489636974080,-0.222438604,0.035186458,0.487798393
1654618489646907136,-0.192914009,0.044721905,0.421016961
1654618489656839168,-0.213458389,0.100795522,0.286809713
1654618489666772224,-0.263574302,0.166912228,0.127114072
1654618489676705024,-0.266442329,0.175767466,-0.021832466
1654618489686637056,-0.169696897,0.09275806,-0.097367704
1654618489696570112,-0.00340895,-0.061988562,-0.042187683
1654618489706503168,0.170892283,-0.16152741,0.117802247
1654618489716435200,0.280707687,-0.210793108,0.30656153
1654618489726368256,0.242319807,-0.258580625,0.418482214
1654618489736300032,0.152915925,-0.260473996,0.45197022
1654618489746233088,0.021383988,-0.318213731,0.389584333
1654618489756165888,-0.168852612,-0.388271779,0.264852554
1654618489766097920,-0.375587136,-0.459722787,0.109538585
1654618489776030976,-0.493641108,-0.433468789,-0.009788451
1654618489785964032,-0.463689625,-0.354778767,-0.079756886
1654618489795896064,-0.313171715,-0.240583062,-0.08972621
1654618489805829120,-0.131689549,-0.131542057,-0.04783069
1654618489815761152,0.015217013,-0.087608673,0.023349974
1654618489825694208,0.137308568,-0.068320461,0.105926611
1654618489835627008,0.23705864,-0.034522131,0.169791579
1654618489845559040,0.286269039,-0.014131906,0.180252478
1654618489855492096,0.306060493,-0.03544122,0.168646187
1654618489865425152,0.304407477,-0.078797214,0.153798536
1654618489875357184,0.290404826,-0.16868034,0.168834969
1654618489885290240,0.25968048,-0.271604091,0.201739132
1654618489895223040,0.212686479,-0.31183055,0.229754448
1654618489905155072,0.165689409,-0.294417203,0.230021834
1654618489915088128,0.148965627,-0.236314178,0.20264101
1654618489925019904,0.138866395,-0.159654826,0.157804295
1654618489934952960,0.144171238,-0.082078144,0.096970513
1654618489944886016,0.133520991,-0.047060769,0.025268894
1654618489954818048,0.092715569,-0.070343144,-0.04827252
1654618489964751104,0.061830357,-0.117432088,-0.075392559
1654618489974683904,0.032484498,-0.171909407,-0.037261512
1654618489984615936,-0.027812663,-0.22325328,0.040215433
1654618489994548992,-0.164654359,-0.214847297,0.112110689
1654618490004482048,-0.335570186,-0.150518641,0.108009957
1654618490014414080,-0.453941613,-0.057919186,0.052416988
1654618490024347136,-0.457124889,0.012761373,-0.014119696
1654618490034279168,-0.345465899,0.010071518,-0.069034226
1654618490044212224,-0.19366546,-0.039462745,-0.088259853
1654618490054145024,-0.038981203,-0.152249828,-0.093359634
1654618490064077056,0.042661991,-0.242692381,-0.110589221
1654618490074010112,-0.004098837,-0.30021438,-0.154442236
1654618490083943168,-0.170203134,-0.380713999,-0.226201639
1654618490093875200,-0.34957999,-0.469158262,-0.304311335
1654618490103808256,-0.439748496,-0.510955453,-0.354502618
1654618490113741056,-0.449309975,-0.489654571,-0.333312392
1654618490123673088,-0.466389895,-0.443077743,-0.264731199
1654618490133606144,-0.500209391,-0.348128617,-0.213808626
1654618490143537920,-0.518755615,-0.209898844,-0.191638604
1654618490153470976,-0.516867161,-0.094810553,-0.196833998
1654618490163404032,-0.469278872,-0.007908406,-0.190187544
1654618490173336064,-0.345347375,0.009497376,-0.159302682
1654618490183269120,-0.176768765,-0.027210038,-0.098341331
1654618490193201920,0.006514186,-0.073769264,-0.005832192
1654618490203133952,0.167223975,-0.142415434,0.130756274
1654618490213067008,0.293870777,-0.228773147,0.28856653
1654618490222999040,0.381885856,-0.369281799,0.441121191
1654618490232936704,0.429504782,-0.65210104,0.539183676
1654618490242869504,0.467444986,-1.020361066,0.603115797
1654618490252801536,0.535610557,-1.42904675,0.684342444
1654618490262734592,0.626333535,-1.89089644,0.784677863
1654618490272667648,0.721143842,-2.353583574,0.893775225
1654618490282599680,0.811925113,-2.723439932,0.99830085
1654618490292532736,0.918388486,-2.993345737,1.082268715
1654618490302465792,1.022384286,-3.214553833,1.170425415
1654618490312397568,1.124652028,-3.409933805,1.29783535
1654618490322330368,1.279390216,-3.559919596,1.492355347
1654618490332262400,1.345429301,-4.009141445,1.60376811
1654618490342195456,1.442167044,-4.184640884,1.728930235
1654618490352128512,1.531513453,-4.195514202,1.869423747
1654618490362060544,1.501400352,-4.222443581,1.98582828
1654618490371993600,1.357859731,-4.261847019,2.09159708
1654618490381926656,1.197533131,-4.31600666,2.208569527
1654618490391858688,1.108263612,-4.346365929,2.310089588
